Frame,MergeStartTime(ms),MergeEndTime(ms),Elapsed(ms)
1,1750820358555.333,1750820358574.509,19.176
2,1750820358597.166,1750820358612.961,15.795
3,1750820358631.610,1750820358646.989,15.379
4,1750820358663.939,1750820358678.502,14.564
5,1750820358697.388,1750820358708.069,10.681
6,1750820358729.325,1750820358740.783,11.458
7,1750820358764.116,1750820358776.142,12.025
8,1750820358797.354,1750820358808.699,11.345
9,1750820358830.123,1750820358845.256,15.133
10,1750820358863.095,1750820358881.423,18.328
11,1750820358896.896,1750820358911.718,14.821
12,1750820358930.019,1750820358945.679,15.660
13,1750820358963.424,1750820358981.092,17.668
14,1750820358996.096,1750820359013.818,17.722
15,1750820359031.440,1750820359047.166,15.725
16,1750820359063.857,1750820359078.918,15.061
17,1750820359098.190,1750820359113.989,15.799
18,1750820359130.664,1750820359146.800,16.136
19,1750820359163.304,1750820359180.314,17.010
20,1750820359197.174,1750820359212.807,15.633
21,1750820359231.559,1750820359242.808,11.249
22,1750820359263.621,1750820359275.716,12.095
23,1750820359297.105,1750820359309.665,12.560
24,1750820359329.308,1750820359347.257,17.949
25,1750820359363.349,1750820359379.807,16.458
26,1750820359396.670,1750820359412.894,16.224
27,1750820359429.431,1750820359447.140,17.709
28,1750820359462.809,1750820359481.140,18.330
29,1750820359497.504,1750820359513.831,16.327
30,1750820359529.632,1750820359545.325,15.693
31,1750820359564.118,1750820359581.538,17.420
32,1750820359598.031,1750820359617.185,19.154
33,1750820359630.063,1750820359647.598,17.535
34,1750820359664.255,1750820359680.164,15.909
35,1750820359698.930,1750820359713.602,14.672
36,1750820359730.608,1750820359745.584,14.976
37,1750820359764.264,1750820359780.032,15.768
38,1750820359797.107,1750820359812.398,15.292
39,1750820359831.446,1750820359843.803,12.357
40,1750820359864.457,1750820359884.711,20.254
41,1750820359896.929,1750820359918.942,22.013
42,1750820359930.118,1750820359955.030,24.912
43,1750820359981.000,1750820360003.632,22.632
44,1750820360029.895,1750820360051.054,21.159
45,1750820360064.617,1750820360086.131,21.514
46,1750820360097.175,1750820360118.688,21.512
47,1750820360147.981,1750820360168.733,20.752
48,1750820360180.909,1750820360194.998,14.089
49,1750820360213.088,1750820360228.917,15.829
50,1750820360247.790,1750820360264.317,16.527
51,1750820360282.356,1750820360296.618,14.261
52,1750820360314.712,1750820360331.331,16.619
53,1750820360348.334,1750820360364.319,15.984
54,1750820360380.995,1750820360397.735,16.740
55,1750820360415.870,1750820360431.941,16.071
56,1750820360447.759,1750820360463.420,15.661
57,1750820360481.702,1750820360500.072,18.370
58,1750820360515.352,1750820360531.033,15.682
59,1750820360549.138,1750820360564.358,15.221
60,1750820360582.670,1750820360594.521,11.852
61,1750820360615.837,1750820360625.561,9.724
62,1750820360646.810,1750820360657.198,10.387
63,1750820360682.872,1750820360693.794,10.922
64,1750820360714.801,1750820360726.101,11.300
65,1750820360749.810,1750820360760.820,11.010
66,1750820360783.298,1750820360793.645,10.347
67,1750820360815.760,1750820360825.071,9.310
68,1750820360848.880,1750820360860.166,11.286
69,1750820360882.543,1750820360891.965,9.423
70,1750820360916.615,1750820360927.802,11.187
71,1750820360949.497,1750820360960.018,10.521
72,1750820360982.091,1750820360993.143,11.052
73,1750820361015.955,1750820361032.369,16.413
74,1750820361048.927,1750820361066.357,17.430
75,1750820361082.231,1750820361106.334,24.102
76,1750820361116.252,1750820361132.270,16.018
77,1750820361149.816,1750820361167.368,17.552
78,1750820361183.313,1750820361196.025,12.712
79,1750820361215.294,1750820361225.886,10.592
80,1750820361248.327,1750820361257.504,9.177
81,1750820361282.221,1750820361293.422,11.201
82,1750820361316.088,1750820361326.529,10.440
83,1750820361349.115,1750820361359.806,10.691
84,1750820361383.101,1750820361395.534,12.433
85,1750820361415.344,1750820361426.813,11.468
86,1750820361450.585,1750820361461.842,11.257
87,1750820361483.218,1750820361493.238,10.021
88,1750820361516.997,1750820361530.819,13.822
89,1750820361549.507,1750820361564.882,15.375
90,1750820361583.312,1750820361599.355,16.043
91,1750820361616.497,1750820361632.508,16.011
92,1750820361650.336,1750820361663.568,13.231
93,1750820361682.129,1750820361697.959,15.830
94,1750820361715.664,1750820361730.846,15.182
95,1750820361749.790,1750820361765.158,15.368
96,1750820361782.473,1750820361793.149,10.676
97,1750820361816.528,1750820361827.085,10.557
98,1750820361849.447,1750820361861.297,11.850
99,1750820361882.072,1750820361893.775,11.703
100,1750820361916.223,1750820361927.891,11.668
101,1750820361949.737,1750820361960.430,10.694
102,1750820361982.542,1750820361993.863,11.322
103,1750820362016.896,1750820362027.086,10.190
104,1750820362050.732,1750820362060.725,9.993
105,1750820362084.147,1750820362098.658,14.511
106,1750820362116.069,1750820362137.088,21.019
107,1750820362149.437,1750820362165.023,15.586
108,1750820362182.827,1750820362197.244,14.416
109,1750820362216.824,1750820362232.384,15.560
110,1750820362249.928,1750820362263.901,13.973
111,1750820362283.595,1750820362296.168,12.573
112,1750820362317.129,1750820362327.209,10.081
113,1750820362350.667,1750820362362.222,11.555
114,1750820362382.103,1750820362393.266,11.164
115,1750820362416.944,1750820362427.996,11.052
116,1750820362449.922,1750820362460.086,10.164
117,1750820362483.654,1750820362493.366,9.713
118,1750820362517.886,1750820362528.058,10.172
119,1750820362549.984,1750820362560.737,10.752
120,1750820362583.884,1750820362594.946,11.062
121,1750820362618.171,1750820362633.430,15.260
122,1750820362650.793,1750820362665.264,14.470
123,1750820362683.984,1750820362702.178,18.195
124,1750820362717.846,1750820362731.583,13.737
125,1750820362751.495,1750820362766.631,15.136
126,1750820362783.449,1750820362794.753,11.304
127,1750820362815.706,1750820362826.257,10.551
128,1750820362850.223,1750820362859.155,8.931
129,1750820362884.255,1750820362894.664,10.408
130,1750820362916.254,1750820362926.474,10.220
131,1750820362950.141,1750820362963.440,13.298
132,1750820362984.847,1750820362995.085,10.237
133,1750820363017.566,1750820363029.031,11.465
134,1750820363050.257,1750820363064.854,14.596
135,1750820363085.091,1750820363099.354,14.262
136,1750820363118.038,1750820363133.978,15.941
137,1750820363151.789,1750820363169.893,18.104
138,1750820363183.339,1750820363205.250,21.910
139,1750820363217.604,1750820363237.313,19.709
140,1750820363251.776,1750820363272.770,20.993
141,1750820363282.800,1750820363304.499,21.699
142,1750820363316.406,1750820363334.736,18.330
143,1750820363350.816,1750820363370.227,19.411
144,1750820363384.448,1750820363403.945,19.497
145,1750820363416.257,1750820363434.377,18.120
146,1750820363449.627,1750820363470.821,21.194
147,1750820363483.115,1750820363500.052,16.937
148,1750820363517.222,1750820363533.191,15.969
149,1750820363550.889,1750820363565.369,14.480
150,1750820363585.552,1750820363601.000,15.448
151,1750820363617.353,1750820363631.678,14.325
152,1750820363650.733,1750820363666.294,15.561
153,1750820363684.392,1750820363701.335,16.943
154,1750820363717.838,1750820363733.916,16.078
155,1750820363750.459,1750820363768.903,18.444
156,1750820363785.606,1750820363803.873,18.267
157,1750820363816.727,1750820363833.185,16.458
158,1750820363851.367,1750820363867.715,16.348
159,1750820363884.605,1750820363901.479,16.874
160,1750820363918.726,1750820363933.997,15.271
161,1750820363951.868,1750820363966.698,14.831
162,1750820363984.840,1750820363999.796,14.956
163,1750820364018.750,1750820364033.147,14.396
164,1750820364052.855,1750820364069.124,16.269
165,1750820364084.021,1750820364097.982,13.961
166,1750820364118.987,1750820364134.402,15.415
167,1750820364151.639,1750820364164.881,13.242
168,1750820364185.480,1750820364200.332,14.852
169,1750820364217.962,1750820364233.412,15.450
170,1750820364251.715,1750820364264.352,12.637
171,1750820364284.964,1750820364299.027,14.064
172,1750820364317.913,1750820364334.495,16.582
173,1750820364349.809,1750820364365.071,15.262
174,1750820364384.931,1750820364402.327,17.396
175,1750820364417.890,1750820364433.884,15.993
176,1750820364453.397,1750820364464.161,10.763
177,1750820364484.333,1750820364496.221,11.888
178,1750820364518.190,1750820364531.698,13.509
179,1750820364551.870,1750820364560.942,9.072
180,1750820364584.542,1750820364596.848,12.306
181,1750820364618.037,1750820364634.406,16.370
182,1750820364652.363,1750820364667.343,14.980
183,1750820364684.691,1750820364700.740,16.048
184,1750820364718.286,1750820364734.890,16.604
185,1750820364751.969,1750820364769.223,17.254
186,1750820364784.412,1750820364799.978,15.566
187,1750820364818.278,1750820364833.388,15.110
188,1750820364851.647,1750820364867.256,15.609
189,1750820364885.625,1750820364901.734,16.109
190,1750820364918.729,1750820364934.362,15.632
191,1750820364951.564,1750820364962.862,11.298
192,1750820364985.730,1750820364996.396,10.666
193,1750820365018.988,1750820365030.161,11.173
194,1750820365051.797,1750820365061.833,10.036
195,1750820365086.125,1750820365101.812,15.687
196,1750820365122.227,1750820365141.582,19.355
197,1750820365175.761,1750820365192.946,17.185
198,1750820365219.958,1750820365234.791,14.833
199,1750820365251.858,1750820365268.122,16.264
200,1750820365286.402,1750820365302.907,16.505
201,1750820365318.534,1750820365335.532,16.998
202,1750820365352.231,1750820365368.151,15.920
203,1750820365384.974,1750820365401.001,16.027
204,1750820365418.064,1750820365432.592,14.528
205,1750820365453.339,1750820365470.233,16.894
206,1750820365486.030,1750820365502.304,16.274
207,1750820365519.179,1750820365535.199,16.020
208,1750820365570.645,1750820365586.717,16.072
209,1750820365602.484,1750820365621.939,19.455
210,1750820365635.288,1750820365650.829,15.541
211,1750820365668.860,1750820365686.962,18.103
212,1750820365703.226,1750820365713.220,9.994
213,1750820365734.903,1750820365749.166,14.263
214,1750820365768.834,1750820365786.037,17.204
215,1750820365802.381,1750820365818.327,15.946
216,1750820365836.864,1750820365853.473,16.609
217,1750820365867.831,1750820365886.152,18.321
218,1750820365901.926,1750820365919.079,17.153
219,1750820365936.465,1750820365952.374,15.909
220,1750820365969.997,1750820365986.302,16.305
221,1750820366003.412,1750820366018.159,14.747
222,1750820366036.035,1750820366053.675,17.641
223,1750820366070.026,1750820366087.078,17.052
224,1750820366103.429,1750820366119.687,16.258
225,1750820366135.126,1750820366150.164,15.038
226,1750820366168.298,1750820366183.825,15.528
227,1750820366204.443,1750820366221.565,17.123
228,1750820366236.077,1750820366253.797,17.720
229,1750820366269.407,1750820366285.446,16.039
230,1750820366303.137,1750820366321.558,18.421
231,1750820366336.296,1750820366353.076,16.780
232,1750820366369.331,1750820366389.007,19.676
233,1750820366403.214,1750820366419.001,15.787
234,1750820366435.558,1750820366450.862,15.304
235,1750820366470.576,1750820366488.437,17.861
236,1750820366502.755,1750820366519.106,16.351
237,1750820366536.243,1750820366553.202,16.959
238,1750820366571.135,1750820366587.996,16.860
239,1750820366603.611,1750820366620.863,17.252
240,1750820366635.933,1750820366652.766,16.832
241,1750820366669.922,1750820366685.522,15.600
242,1750820366702.946,1750820366721.424,18.478
243,1750820366736.604,1750820366754.704,18.100
244,1750820366770.030,1750820366786.324,16.295
245,1750820366804.537,1750820366821.778,17.241
246,1750820366835.909,1750820366853.886,17.977
247,1750820366870.178,1750820366885.042,14.864
248,1750820366904.044,1750820366920.811,16.767
249,1750820366935.833,1750820366951.152,15.319
250,1750820366972.585,1750820366988.258,15.672
251,1750820367002.052,1750820367016.260,14.208
252,1750820367036.661,1750820367053.595,16.934
253,1750820367070.352,1750820367086.441,16.089
254,1750820367103.727,1750820367120.470,16.743
255,1750820367136.112,1750820367153.219,17.107
256,1750820367170.268,1750820367182.577,12.309
257,1750820367203.437,1750820367213.860,10.423
258,1750820367236.314,1750820367249.948,13.634
259,1750820367269.779,1750820367281.767,11.988
260,1750820367306.124,1750820367318.171,12.047
261,1750820367337.761,1750820367356.664,18.903
262,1750820367369.661,1750820367386.362,16.701
263,1750820367403.804,1750820367419.581,15.777
264,1750820367436.082,1750820367455.342,19.260
265,1750820367470.400,1750820367489.105,18.705
266,1750820367502.981,1750820367521.223,18.242
267,1750820367537.241,1750820367553.603,16.361
268,1750820367570.994,1750820367588.166,17.172
269,1750820367603.821,1750820367620.590,16.769
270,1750820367637.438,1750820367652.847,15.410
271,1750820367671.252,1750820367687.776,16.524
272,1750820367704.273,1750820367719.965,15.691
273,1750820367737.612,1750820367753.975,16.363
274,1750820367772.130,1750820367782.357,10.226
275,1750820367802.690,1750820367818.205,15.515
276,1750820367838.741,1750820367855.661,16.920
277,1750820367870.601,1750820367887.385,16.784
278,1750820367904.084,1750820367922.459,18.375
279,1750820367937.753,1750820367954.023,16.270
280,1750820367970.904,1750820367988.301,17.396
281,1750820368004.112,1750820368020.973,16.860
282,1750820368036.345,1750820368052.385,16.041
283,1750820368070.257,1750820368085.660,15.404
284,1750820368104.728,1750820368118.960,14.233
285,1750820368137.209,1750820368151.969,14.760
286,1750820368171.583,1750820368187.066,15.482
287,1750820368204.685,1750820368219.477,14.793
288,1750820368238.546,1750820368253.489,14.942
289,1750820368271.570,1750820368282.133,10.564
290,1750820368304.662,1750820368315.417,10.755
291,1750820368339.132,1750820368356.800,17.668
292,1750820368372.314,1750820368387.148,14.833
293,1750820368403.468,1750820368421.971,18.503
294,1750820368437.716,1750820368453.831,16.115
295,1750820368471.770,1750820368488.520,16.750
296,1750820368503.695,1750820368519.795,16.100
297,1750820368537.454,1750820368553.951,16.498
298,1750820368570.006,1750820368586.719,16.713
299,1750820368605.784,1750820368622.234,16.450
0,1750820379775.406,1750820379779.936,4.529
1,1750820379947.358,1750820379950.912,3.554
2,1750820379977.357,1750820379981.934,4.577
3,1750820379999.397,1750820380002.177,2.779
4,1750820380015.802,1750820380018.836,3.034
5,1750820380031.914,1750820380034.961,3.048
6,1750820380048.214,1750820380052.253,4.039
7,1750820380065.373,1750820380068.711,3.338
8,1750820380081.787,1750820380085.867,4.080
9,1750820380098.186,1750820380101.945,3.759
10,1750820380114.409,1750820380117.979,3.570
11,1750820380131.372,1750820380134.500,3.129
12,1750820380148.203,1750820380151.769,3.567
13,1750820380164.495,1750820380168.748,4.254
14,1750820380181.387,1750820380185.429,4.042
15,1750820380199.175,1750820380203.332,4.157
16,1750820380232.761,1750820380237.480,4.719
17,1750820380264.843,1750820380268.621,3.778
18,1750820380281.796,1750820380286.954,5.158
19,1750820380316.492,1750820380320.525,4.034
20,1750820380347.459,1750820380351.861,4.402
21,1750820380364.579,1750820380368.131,3.552
22,1750820380381.510,1750820380385.099,3.589
23,1750820380397.700,1750820380401.839,4.139
24,1750820380414.756,1750820380418.974,4.219
25,1750820380430.670,1750820380435.570,4.900
26,1750820380448.667,1750820380452.227,3.560
27,1750820380464.540,1750820380467.594,3.054
28,1750820380482.514,1750820380486.569,4.055
29,1750820380499.285,1750820380501.835,2.550
30,1750820380514.652,1750820380517.686,3.033
31,1750820380530.602,1750820380534.154,3.552
32,1750820380547.097,1750820380551.287,4.189
33,1750820380566.031,1750820380570.230,4.199
34,1750820380582.340,1750820380587.997,5.656
35,1750820380598.686,1750820380604.415,5.728
36,1750820380632.220,1750820380636.517,4.296
37,1750820380648.312,1750820380651.886,3.574
38,1750820380665.738,1750820380668.344,2.606
39,1750820380681.927,1750820380687.332,5.405
40,1750820380698.366,1750820380702.434,4.068
41,1750820380714.961,1750820380718.734,3.773
42,1750820380731.734,1750820380734.878,3.144
43,1750820380748.280,1750820380751.904,3.624
44,1750820380764.448,1750820380768.015,3.566
45,1750820380781.969,1750820380787.657,5.687
46,1750820380798.100,1750820380805.624,7.524
47,1750820380833.079,1750820380839.520,6.440
48,1750820380864.433,1750820380870.591,6.159
49,1750820380882.634,1750820380887.304,4.670
50,1750820380899.582,1750820380902.895,3.313
51,1750820380914.988,1750820380920.608,5.620
52,1750820380948.138,1750820380952.459,4.321
53,1750820380965.598,1750820380970.068,4.470
54,1750820380999.041,1750820381003.626,4.585
55,1750820381015.043,1750820381019.557,4.513
56,1750820381031.996,1750820381037.075,5.080
57,1750820381048.786,1750820381053.104,4.318
58,1750820381065.175,1750820381068.885,3.710
59,1750820381082.108,1750820381086.677,4.568
60,1750820381098.505,1750820381103.122,4.617
61,1750820381116.022,1750820381119.034,3.012
62,1750820381131.746,1750820381135.327,3.581
63,1750820381149.328,1750820381152.482,3.153
64,1750820381165.650,1750820381169.225,3.574
65,1750820381182.246,1750820381185.282,3.036
66,1750820381198.598,1750820381202.156,3.558
67,1750820381215.659,1750820381218.946,3.287
68,1750820381231.568,1750820381234.882,3.315
69,1750820381248.402,1750820381252.448,4.046
70,1750820381265.730,1750820381269.055,3.324
71,1750820381281.662,1750820381285.196,3.534
72,1750820381298.132,1750820381301.783,3.651
73,1750820381314.972,1750820381318.033,3.061
74,1750820381331.711,1750820381334.765,3.053
75,1750820381348.603,1750820381352.668,4.065
76,1750820381365.011,1750820381370.155,5.144
77,1750820381382.963,1750820381386.510,3.547
78,1750820381399.583,1750820381403.158,3.575
79,1750820381414.738,1750820381419.948,5.210
80,1750820381432.668,1750820381436.788,4.120
81,1750820381449.134,1750820381454.266,5.132
82,1750820381465.543,1750820381469.552,4.009
83,1750820381483.547,1750820381487.904,4.357
84,1750820381497.595,1750820381503.101,5.506
85,1750820381513.785,1750820381519.342,5.556
86,1750820381532.609,1750820381535.149,2.540
87,1750820381549.318,1750820381551.523,2.205
88,1750820381565.221,1750820381568.245,3.023
89,1750820381582.490,1750820381585.507,3.017
90,1750820381599.047,1750820381601.806,2.759
91,1750820381615.922,1750820381617.957,2.035
92,1750820381632.412,1750820381635.402,2.991
93,1750820381649.165,1750820381652.202,3.036
94,1750820381666.167,1750820381669.324,3.157
95,1750820381681.798,1750820381685.008,3.210
96,1750820381699.201,1750820381701.857,2.656
97,1750820381715.965,1750820381719.545,3.580
98,1750820381732.228,1750820381736.731,4.504
99,1750820381749.645,1750820381752.200,2.555
100,1750820381765.220,1750820381769.630,4.410
101,1750820381782.839,1750820381787.540,4.701
102,1750820381799.346,1750820381803.062,3.716
103,1750820381816.590,1750820381820.138,3.548
104,1750820381833.124,1750820381835.729,2.605
105,1750820381849.458,1750820381854.559,5.101
106,1750820381865.144,1750820381869.840,4.696
107,1750820381883.285,1750820381887.064,3.779
108,1750820381899.638,1750820381904.258,4.620
109,1750820381914.250,1750820381918.178,3.929
110,1750820381932.244,1750820381935.371,3.127
111,1750820381949.528,1750820381953.562,4.034
112,1750820381966.023,1750820381969.087,3.063
113,1750820381981.721,1750820381984.259,2.537
114,1750820381998.630,1750820382002.194,3.564
115,1750820382016.070,1750820382020.193,4.124
116,1750820382032.428,1750820382035.241,2.813
117,1750820382049.518,1750820382054.128,4.610
118,1750820382065.874,1750820382069.401,3.527
119,1750820382082.589,1750820382085.626,3.036
120,1750820382100.089,1750820382103.121,3.032
121,1750820382115.970,1750820382119.703,3.733
122,1750820382132.187,1750820382134.741,2.554
