Frame,DownloadedTime(ms),RenderedTime(ms),RenderDelay(ms),FrameInterval(ms)
0,389.739,481.763,92.024,0.000
1,421.879,515.045,93.166,33.282
2,481.133,548.732,67.599,33.687
3,514.286,579.529,65.243,30.798
4,547.935,610.591,62.657,31.062
5,578.859,641.411,62.552,30.819
6,609.810,672.344,62.534,30.933
7,640.691,706.961,66.271,34.617
8,671.508,737.965,66.457,31.004
9,706.241,770.735,64.494,32.770
10,737.082,802.589,65.507,31.854
11,769.856,834.298,64.443,31.709
12,801.856,869.085,67.229,34.786
13,833.486,908.853,75.368,39.769
14,865.150,940.487,75.337,31.634
15,908.318,972.520,64.203,32.033
16,940.005,1004.046,64.041,31.525
17,971.978,1036.172,64.193,32.126
18,1003.500,1067.844,64.344,31.673
19,1035.625,1100.180,64.555,32.336
20,1067.342,1132.048,64.706,31.868
21,1099.637,1161.948,62.311,29.899
22,1131.518,1191.968,60.450,30.020
23,1161.506,1223.278,61.771,31.310
24,1191.411,1268.901,77.490,45.623
25,1222.754,1299.424,76.671,30.523
26,1268.368,1329.069,60.701,29.645
27,1298.568,1369.181,70.613,40.112
28,1328.306,1400.184,71.878,31.004
29,1361.968,1431.268,69.299,31.083
30,1399.272,1462.166,62.894,30.898
31,1430.634,1491.869,61.235,29.703
32,1461.628,1521.880,60.252,30.010
33,1491.346,1555.130,63.784,33.250
34,1521.187,1603.184,81.997,48.053
35,1554.495,1633.679,79.185,30.496
36,1602.649,1664.692,62.043,31.013
37,1633.145,1694.022,60.877,29.330
38,1664.112,1723.601,59.489,29.579
39,1693.472,1759.411,65.938,35.810
40,1723.037,1792.690,69.653,33.279
41,1758.763,1822.259,63.495,29.568
42,1792.117,1870.128,78.011,47.869
43,1821.401,1907.957,86.557,37.829
44,1869.672,1938.605,68.933,30.648
45,1907.480,2122.590,215.110,183.985
46,1938.037,2172.525,234.488,49.935
47,2122.121,2208.406,86.285,35.882
48,2172.063,2238.047,65.983,29.640
49,2207.891,2267.796,59.905,29.750
50,2237.507,2297.391,59.884,29.595
51,2267.275,2328.491,61.216,31.100
52,2296.398,2358.831,62.433,30.341
53,2327.743,2387.885,60.142,29.053
54,2358.355,2418.924,60.570,31.040
55,2387.427,2448.979,61.552,30.055
56,2418.462,2492.577,74.115,43.597
57,2448.511,2523.597,75.086,31.021
58,2491.904,2553.914,62.010,30.317
59,2522.954,2583.550,60.597,29.637
60,2553.246,2613.258,60.012,29.707
61,2582.990,2643.202,60.212,29.944
62,2612.734,2672.421,59.686,29.219
63,2642.708,2701.954,59.246,29.534
64,2671.841,2730.977,59.136,29.023
65,2701.477,2760.205,58.729,29.228
66,2730.377,2789.454,59.076,29.248
67,2759.678,2819.596,59.918,30.142
68,2788.758,2849.727,60.969,30.131
69,2819.140,2878.480,59.340,28.753
70,2849.101,2911.658,62.557,33.178
71,2877.717,2948.173,70.456,36.515
72,2907.443,2977.950,70.508,29.778
73,2947.691,3007.128,59.436,29.177
74,2977.435,3036.760,59.325,29.632
75,3006.502,3066.282,59.780,29.523
76,3036.192,3095.896,59.704,29.613
77,3065.742,3124.883,59.141,28.988
78,3095.360,3153.811,58.451,28.928
79,3124.240,3183.077,58.838,29.266
80,3153.373,3212.598,59.225,29.520
81,3182.569,3241.717,59.148,29.119
82,3212.154,3272.110,59.956,30.394
83,3240.805,3302.080,61.275,29.970
84,3271.595,3331.563,59.968,29.483
85,3301.632,3361.670,60.038,30.107
86,3331.081,3399.713,68.632,38.043
87,3360.896,3431.417,70.520,31.703
88,3399.141,3462.957,63.816,31.540
89,3430.860,3495.545,64.685,32.589
90,3462.413,3526.883,64.470,31.338
91,3495.078,3557.286,62.207,30.402
92,3526.377,3586.917,60.541,29.632
93,3556.696,3617.173,60.478,30.256
94,3586.400,3646.565,60.165,29.391
95,3616.693,3676.478,59.784,29.913
96,3646.065,3707.253,61.188,30.775
97,3676.020,3737.105,61.085,29.852
98,3706.773,3772.342,65.568,35.236
99,3736.519,3804.620,68.101,32.279
100,3771.716,3844.784,73.069,40.164
101,3803.762,3888.101,84.339,43.317
102,3843.917,3923.098,79.181,34.997
103,3887.652,3958.060,70.408,34.963
104,3922.604,3992.379,69.775,34.319
105,3957.537,4033.710,76.173,41.331
106,3991.847,4069.002,77.156,35.293
107,4033.136,4103.656,70.520,34.653
108,4068.568,4134.348,65.780,30.692
109,4103.130,4164.018,60.888,29.670
110,4133.855,4200.224,66.369,36.206
111,4163.474,4229.406,65.932,29.182
112,4199.595,4259.457,59.862,30.051
113,4228.877,4289.684,60.807,30.227
114,4258.489,4319.038,60.549,29.353
115,4289.257,4349.574,60.317,30.536
116,4318.507,4386.788,68.281,37.215
117,4348.774,4429.899,81.126,43.111
118,4386.286,4469.770,83.484,39.871
119,4429.480,4506.057,76.577,36.287
120,4469.289,4545.290,76.001,39.233
121,4505.623,4588.169,82.546,42.879
122,4544.883,4624.729,79.846,36.560
123,4587.701,4661.184,73.483,36.455
124,4624.222,4699.733,75.511,38.549
125,4660.684,4735.620,74.936,35.887
126,4699.312,4769.558,70.247,33.939
127,4735.196,4803.398,68.202,33.840
128,4769.040,4837.636,68.596,34.238
129,4802.842,4867.496,64.654,29.860
130,4837.149,4896.985,59.836,29.489
131,4866.661,4943.933,77.272,46.948
132,4896.120,4973.829,77.709,29.896
133,4943.492,5004.654,61.162,30.824
134,4973.202,5036.469,63.267,31.815
135,5004.171,5073.664,69.494,37.195
136,5035.855,5102.791,66.936,29.127
137,5073.117,5133.719,60.602,30.927
138,5102.294,5163.364,61.070,29.645
139,5133.193,5193.009,59.816,29.645
140,5162.912,5223.213,60.301,30.204
141,5192.383,5252.222,59.838,29.009
142,5222.644,5281.372,58.728,29.150
143,5251.715,5310.916,59.201,29.544
144,5280.806,5339.790,58.984,28.875
145,5310.411,5370.032,59.621,30.241
146,5338.946,5409.409,70.463,39.377
147,5369.153,5446.985,77.831,37.576
148,5408.722,5482.896,74.174,35.911
149,5446.412,5516.205,69.793,33.309
150,5482.364,5546.460,64.096,30.255
151,5515.613,5578.579,62.966,32.119
152,5545.937,5613.522,67.586,34.943
153,5578.042,5649.074,71.031,35.551
154,5612.988,5684.824,71.835,35.750
155,5648.626,5721.757,73.131,36.934
156,5684.388,5755.978,71.590,34.221
157,5721.347,5784.966,63.619,28.988
158,5755.436,5814.487,59.051,29.521
159,5784.433,5850.433,66.000,35.946
160,5814.059,5882.525,68.466,32.092
161,5849.746,5921.573,71.827,39.048
162,5881.616,5951.237,69.621,29.664
163,5921.117,5981.311,60.194,30.074
164,5950.730,6010.663,59.932,29.352
165,5980.829,6039.945,59.116,29.282
166,6010.105,6072.163,62.058,32.218
167,6039.419,6108.522,69.103,36.359
168,6071.714,6143.496,71.782,34.974
169,6108.075,6178.419,70.343,34.923
170,6142.967,6207.129,64.162,28.711
171,6177.761,6236.097,58.336,28.967
172,6206.499,6270.900,64.401,34.803
173,6235.533,6301.629,66.096,30.729
174,6270.402,6331.587,61.185,29.958
175,6301.157,6365.718,64.561,34.131
176,6330.908,6407.250,76.342,41.532
177,6361.684,6437.677,75.992,30.427
178,6406.729,6473.416,66.687,35.739
179,6437.201,6509.200,71.998,35.784
180,6473.006,6540.541,67.535,31.341
181,6508.566,6579.406,70.840,38.865
182,6540.130,6610.876,70.746,31.470
183,6578.816,6646.621,67.805,35.745
184,6610.396,6682.049,71.654,35.428
185,6646.228,6713.973,67.745,31.924
186,6681.590,6745.332,63.742,31.359
187,6713.494,6774.851,61.357,29.519
188,6744.785,6804.819,60.034,29.968
189,6774.286,6834.409,60.124,29.590
190,6804.365,6865.112,60.747,30.703
191,6833.717,6932.731,99.015,67.620
192,6864.401,6995.684,131.283,62.953
193,6918.181,7057.603,139.422,61.919
194,6980.718,7117.342,136.624,59.740
195,7042.979,7152.894,109.915,35.552
196,7106.796,7183.198,76.402,30.304
197,7152.263,7214.116,61.853,30.918
198,7182.742,7250.671,67.929,36.555
199,7213.659,7285.740,72.081,35.069
200,7250.227,7315.784,65.557,30.044
201,7285.259,7350.448,65.189,34.664
202,7315.329,7380.666,65.337,30.218
203,7349.844,7412.194,62.350,31.528
204,7380.176,7442.413,62.237,30.219
205,7411.642,7473.903,62.261,31.490
206,7441.797,7503.572,61.775,29.669
207,7473.477,7533.559,60.081,29.986
208,7503.033,7563.394,60.361,29.835
209,7532.994,7603.695,70.701,40.301
210,7562.837,7635.470,72.633,31.775
211,7603.208,7665.336,62.127,29.866
212,7634.981,7694.720,59.739,29.384
213,7664.781,7724.240,59.458,29.520
214,7694.095,7754.060,59.964,29.820
215,7723.731,7784.292,60.561,30.232
216,7753.530,7815.153,61.622,30.861
217,7783.827,7845.975,62.148,30.822
218,7814.609,7875.719,61.110,29.744
219,7845.441,7905.592,60.150,29.873
220,7875.128,7935.567,60.439,29.975
221,7905.026,7966.496,61.471,30.929
222,7935.051,7996.791,61.739,30.295
223,7966.036,8036.563,70.527,39.773
224,7996.114,8067.054,70.940,30.491
225,8029.302,8097.327,68.025,30.273
226,8066.598,8128.194,61.597,30.867
227,8096.844,8158.085,61.241,29.891
228,8127.614,8187.613,59.999,29.527
229,8157.543,8216.575,59.032,28.963
230,8187.026,8247.370,60.343,30.794
231,8216.045,8278.446,62.401,31.076
232,8246.881,8310.492,63.610,32.046
233,8277.823,8346.290,68.467,35.798
234,8309.831,8382.168,72.337,35.879
235,8345.759,8413.010,67.250,30.841
236,8381.726,8442.823,61.097,29.814
237,8412.437,8475.627,63.190,32.804
238,8442.330,8512.818,70.488,37.191
239,8471.962,8549.282,77.320,36.464
240,8512.271,8585.285,73.014,36.003
241,8548.694,8615.942,67.248,30.657
242,8584.682,8646.611,61.928,30.669
243,8615.488,8676.088,60.601,29.478
244,8646.000,8706.118,60.118,30.030
245,8675.557,8736.461,60.905,30.343
246,8705.616,8768.359,62.743,31.897
247,8735.949,8799.802,63.853,31.443
248,8767.813,8829.688,61.875,29.886
249,8799.253,8859.688,60.435,30.000
250,8829.215,8890.508,61.292,30.820
251,8859.215,8922.074,62.859,31.567
252,8889.966,8962.908,72.942,40.834
253,8921.604,8993.436,71.832,30.528
254,8962.414,9023.923,61.508,30.486
255,8992.879,9053.508,60.628,29.585
256,9023.409,9083.749,60.340,30.241
257,9053.013,9113.144,60.131,29.395
258,9083.243,9143.686,60.443,30.542
259,9112.632,9173.715,61.082,30.029
260,9143.178,9206.690,63.512,32.975
261,9173.252,9242.724,69.473,36.034
262,9206.269,9279.187,72.918,36.463
263,9242.295,9309.837,67.543,30.650
264,9278.550,9340.508,61.958,30.671
265,9309.344,9371.700,62.356,31.192
266,9339.942,9403.124,63.181,31.424
267,9371.194,9447.016,75.823,43.892
268,9402.673,9483.188,80.515,36.171
269,9446.615,9513.358,66.743,30.170
270,9482.648,9543.173,60.525,29.816
271,9512.830,9575.195,62.366,32.022
272,9542.581,9605.351,62.770,30.156
273,9574.693,9635.650,60.957,30.299
274,9604.705,9666.932,62.227,31.282
275,9634.979,9698.319,63.340,31.387
276,9666.327,9728.464,62.137,30.145
277,9697.722,9758.379,60.656,29.914
278,9727.783,9791.145,63.361,32.766
279,9757.855,9826.893,69.038,35.748
280,9790.676,9862.942,72.266,36.049
281,9826.388,9908.219,81.831,45.277
282,9862.438,9943.905,81.467,35.686
283,9907.794,9978.000,70.206,34.095
284,9943.470,10016.605,73.135,38.605
285,9977.507,10048.548,71.041,31.943
286,10016.105,10084.656,68.550,36.108
287,10048.114,10121.708,73.594,37.052
288,10084.094,10152.528,68.434,30.820
289,10121.143,10182.885,61.741,30.357
290,10152.048,10213.169,61.121,30.284
291,10182.399,10243.788,61.389,30.619
292,10212.544,10274.960,62.416,31.172
293,10243.328,10306.589,63.261,31.629
294,10274.531,10336.883,62.352,30.294
295,10306.032,10376.762,70.730,39.879
296,10336.395,10407.106,70.711,30.344
297,10369.698,10437.948,68.250,30.842
298,10406.559,10468.912,62.353,30.964
299,10437.315,10499.470,62.154,30.557
0,10468.446,10528.991,60.544,29.521
1,10498.943,10559.977,61.033,30.986
2,10528.420,10593.696,65.277,33.720
3,10559.295,10624.339,65.044,30.642
4,10593.130,10654.271,61.141,29.933
5,10623.800,10682.620,58.820,28.349
6,10653.788,10711.294,57.506,28.674
7,10682.180,10741.051,58.871,29.757
8,10710.790,10770.382,59.592,29.332
9,10740.564,10801.479,60.915,31.096
10,10769.744,10844.726,74.982,43.248
11,10801.017,10880.372,79.355,35.646
12,10844.144,10910.582,66.438,30.211
13,10879.843,10940.010,60.167,29.428
14,10910.121,10969.830,59.709,29.819
15,10939.499,10999.526,60.027,29.696
16,10969.194,11028.416,59.222,28.890
17,10999.026,11057.467,58.441,29.052
18,11027.785,11087.914,60.129,30.447
19,11056.913,11118.886,61.973,30.972
20,11087.424,11147.620,60.196,28.734
21,11118.442,11176.539,58.096,28.919
22,11146.959,11206.046,59.087,29.507
23,11175.937,11255.116,79.179,49.070
24,11205.314,11291.686,86.372,36.570
25,11254.684,11337.591,82.907,45.905
26,11291.236,11372.973,81.738,35.383
27,11337.072,11407.818,70.746,34.845
28,11372.459,11442.274,69.815,34.456
29,11407.303,11472.415,65.112,30.141
30,11441.787,11506.821,65.034,34.406
31,11471.860,11537.504,65.644,30.683
32,11506.286,11572.143,65.857,34.639
33,11536.985,11606.888,69.903,34.745
34,11571.603,11643.490,71.886,36.602
35,11606.404,11675.333,68.929,31.843
36,11642.918,11706.961,64.043,31.628
37,11674.830,11740.540,65.710,33.579
38,11706.309,11771.550,65.241,31.010
39,11739.968,11802.808,62.841,31.259
40,11771.011,11842.947,71.937,40.139
41,11802.332,11872.550,70.218,29.603
42,11842.433,11902.577,60.144,30.027
43,11872.074,11937.360,65.286,34.783
44,11902.079,11973.564,71.485,36.205
45,11936.315,12009.771,73.456,36.207
46,11973.078,12039.986,66.908,30.215
47,12009.334,12068.961,59.627,28.975
48,12039.429,12098.486,59.058,29.525
49,12068.472,12127.710,59.238,29.224
50,12097.791,12157.659,59.868,29.949
51,12127.185,12188.349,61.165,30.690
52,12157.185,12218.252,61.066,29.902
53,12187.861,12250.642,62.781,32.390
54,12217.748,12282.095,64.347,31.453
55,12250.063,12322.220,72.158,40.125
56,12281.360,12352.071,70.712,29.851
57,12321.757,12381.979,60.222,29.907
58,12351.587,12412.398,60.812,30.420
59,12381.269,12448.193,66.924,35.795
60,12411.941,12477.097,65.156,28.904
61,12447.583,12506.138,58.555,29.041
62,12476.574,12535.952,59.378,29.814
63,12505.580,12566.068,60.488,30.117
64,12535.449,12600.987,65.538,34.919
65,12565.530,12630.965,65.435,29.978
66,12600.466,12661.492,61.026,30.527
67,12630.290,12690.264,59.973,28.771
68,12660.984,12722.640,61.656,32.377
69,12689.697,12760.150,70.453,37.509
70,12722.139,12802.302,80.163,42.153
71,12759.637,12836.263,76.626,33.960
72,12794.112,12868.013,73.901,31.751
73,12835.284,12897.623,62.339,29.610
74,12867.476,12932.171,64.695,34.547
75,12897.052,12961.882,64.831,29.712
76,12931.597,12991.711,60.114,29.829
77,12961.344,13028.186,66.842,36.475
78,12991.190,13057.684,66.494,29.498
79,13027.699,13095.925,68.227,38.242
80,13057.156,13124.531,67.375,28.606
81,13095.250,13163.411,68.160,38.880
82,13123.999,13192.717,68.718,29.306
83,13162.519,13223.492,60.973,30.776
84,13192.189,13262.457,70.268,38.965
85,13223.019,13293.611,70.592,31.153
86,13261.980,13331.899,69.919,38.288
87,13293.013,13361.961,68.948,30.062
88,13331.323,13392.963,61.639,31.002
89,13361.369,13428.318,66.949,35.355
90,13392.442,13458.966,66.523,30.647
91,13427.767,13489.597,61.830,30.632
92,13458.432,13529.285,70.853,39.687
93,13489.024,13559.054,70.029,29.769
94,13528.767,13592.940,64.173,33.886
95,13558.560,13623.555,64.995,30.615
96,13592.475,13656.374,63.899,32.820
97,13622.959,13698.529,75.570,42.155
98,13655.856,13730.433,74.578,31.904
99,13697.986,13767.262,69.276,36.828
100,13729.939,13798.937,68.998,31.675
101,13766.808,13851.796,84.988,52.859
102,13798.378,13914.019,115.641,62.223
103,13837.536,13983.356,145.821,69.338
104,13900.823,14051.826,151.002,68.469
105,13968.647,14101.103,132.456,49.277
106,14033.905,14136.813,102.909,35.710
107,14100.503,14168.398,67.895,31.585
108,14136.248,14199.886,63.638,31.488
109,14167.767,14228.738,60.971,28.851
110,14199.305,14260.494,61.189,31.756
111,14228.171,14295.380,67.209,34.886
112,14259.966,14330.884,70.918,35.504
113,14294.852,14360.911,66.059,30.027
114,14330.427,14393.122,62.695,32.211
115,14360.390,14428.232,67.843,35.110
116,14392.548,14464.496,71.948,36.264
117,14427.732,14494.949,67.218,30.453
118,14463.943,14525.088,61.145,30.138
119,14494.457,14558.338,63.881,33.251
120,14524.646,14592.947,68.302,34.609
121,14554.683,14629.777,75.094,36.830
122,14592.472,14660.278,67.805,30.501
123,14629.283,14691.794,62.511,31.516
124,14659.610,14722.808,63.198,31.014
125,14691.202,14753.481,62.279,30.673
126,14722.259,14788.461,66.201,34.980
127,14752.980,14817.473,64.493,29.013
128,14787.929,14846.965,59.035,29.492
129,14816.794,14876.130,59.336,29.165
130,14846.410,14905.958,59.548,29.827
131,14875.567,14940.776,65.209,34.819
132,14905.394,14971.566,66.173,30.790
133,14940.180,15002.793,62.613,31.227
134,14971.076,15044.052,72.976,41.259
135,15002.235,15076.753,74.518,32.701
136,15036.939,15112.043,75.103,35.289
137,15076.282,15141.733,65.451,29.690
138,15111.529,15171.611,60.082,29.879
139,15141.188,15201.642,60.454,30.030
140,15170.983,15231.892,60.909,30.251
141,15201.116,15267.574,66.457,35.681
142,15231.394,15297.719,66.325,30.145
143,15267.063,15328.834,61.771,31.115
144,15297.227,15358.870,61.643,30.037
145,15328.326,15391.338,63.012,32.468
146,15358.362,15427.722,69.360,36.385
147,15390.855,15459.052,68.196,31.329
148,15427.230,15492.368,65.138,33.316
149,15458.559,15529.396,70.836,37.028
150,15488.776,15560.482,71.707,31.086
151,15528.811,15596.493,67.682,36.011
152,15559.950,15627.943,67.993,31.449
153,15595.932,15663.443,67.511,35.500
154,15627.427,15693.458,66.030,30.014
155,15662.929,15725.132,62.203,31.674
156,15692.820,15762.276,69.455,37.144
157,15724.661,15793.349,68.688,31.074
158,15761.772,15824.400,62.628,31.050
159,15792.778,15855.103,62.325,30.703
160,15823.907,15885.195,61.288,30.092
161,15854.605,15922.582,67.976,37.387
162,15884.566,15956.781,72.215,34.199
163,15922.034,15996.163,74.129,39.382
164,15956.268,16026.994,70.727,30.832
165,15989.212,16058.494,69.282,31.500
166,16026.512,16095.191,68.679,36.697
167,16057.968,16128.096,70.128,32.904
168,16094.675,16161.453,66.778,33.358
169,16127.577,16194.535,66.957,33.081
170,16160.929,16225.394,64.465,30.859
171,16194.089,16262.810,68.722,37.417
172,16224.859,16293.874,69.015,31.063
173,16262.331,16327.171,64.840,33.297
174,16293.379,16358.266,64.886,31.095
175,16326.639,16391.052,64.413,32.786
176,16357.674,16434.334,76.660,43.282
177,16390.612,16466.072,75.460,31.738
178,16433.776,16505.231,71.455,39.159
179,16465.541,16537.230,71.689,31.999
180,16504.575,16567.563,62.988,30.333
181,16536.737,16605.718,68.981,38.154
182,16567.005,16637.004,69.999,31.287
183,16605.224,16675.019,69.795,38.015
184,16636.486,16707.885,71.399,32.866
185,16674.362,16739.480,65.118,31.594
186,16707.378,16777.096,69.718,37.616
187,16738.907,16808.959,70.051,31.863
188,16776.603,16841.072,64.469,32.113
189,16808.504,16872.013,63.509,30.941
190,16840.584,16903.906,63.322,31.893
191,16871.525,16940.020,68.495,36.114
192,16903.438,16970.709,67.271,30.688
193,16939.486,17015.171,75.685,44.462
194,16970.139,17045.992,75.852,30.821
195,17014.658,17077.280,62.622,31.289
196,17045.455,17113.463,68.008,36.183
197,17076.780,17145.615,68.835,32.151
198,17112.927,17176.583,63.656,30.968
199,17145.086,17207.705,62.619,31.122
200,17176.040,17237.830,61.790,30.125
201,17207.161,17274.176,67.015,36.346
202,17237.285,17305.561,68.275,31.385
203,17273.646,17338.739,65.093,33.178
204,17304.580,17370.788,66.208,32.048
205,17338.192,17402.786,64.594,31.999
206,17370.259,17440.863,70.604,38.077
207,17402.306,17482.662,80.356,41.799
208,17440.398,17515.317,74.919,32.655
209,17476.069,17547.291,71.222,31.974
210,17514.783,17579.252,64.470,31.961
211,17546.609,17615.630,69.020,36.377
212,17578.688,17646.155,67.467,30.525
213,17615.072,17677.598,62.525,31.443
214,17645.614,17708.160,62.546,30.563
215,17677.067,17738.875,61.809,30.715
216,17707.632,17775.725,68.093,36.850
217,17738.370,17807.141,68.770,31.415
218,17775.229,17840.505,65.276,33.364
219,17806.603,17872.940,66.337,32.436
220,17840.031,17907.697,67.667,34.757
221,17872.488,17945.109,72.621,37.412
222,17907.262,17984.244,76.981,39.134
223,17944.635,18015.897,71.262,31.654
224,17983.689,18048.133,64.444,32.235
225,18015.360,18081.359,65.999,33.226
226,18047.600,18118.778,71.178,37.419
227,18080.786,18151.621,70.835,32.843
228,18118.272,18184.255,65.983,32.634
229,18151.144,18217.438,66.294,33.182
230,18183.706,18249.828,66.122,32.390
